time,humidity_diffusivity,moisture_capacity,rh,temperature,thermal_capacity,thermal_conductivity
20,0.048340593479251,528.48466328211,1,20,1800000,1.4875
21,0.04987816014722,527.82466344567,1,21,1805000,1.486875
22,0.051453713815897,527.16303246168,1,22,1810000,1.48625
23,0.053067889409662,526.49979685159,1,23,1815000,1.485625
24,0.05472132598664,525.83498299177,1,24,1820000,1.485
25,0.056414666666667,525.16861711206,1,25,1825000,1.484375
26,0.058148558558547,524.50072529439,1,26,1830000,1.48375
27,0.059923652686634,523.83133347137,1,27,1835000,1.483125
28,0.061740603916761,523.16046742507,1,28,1840000,1.4825
29,0.063600070881552,522.48815278578,1,29,1845000,1.481875
30,0.065502715905159,521.81441503087,1,30,1850000,1.48125
31,0.067449204927431,521.13927948366,1,31,1855000,1.480625
32,0.069440207427565,520.46277131244,1,32,1860000,1.48
33,0.071476396347266,519.78491552945,1,33,1865000,1.479375
34,0.073558448013439,519.10573699001,1,34,1870000,1.47875
35,0.075687042060443,518.42526039159,1,35,1875000,1.478125
36,0.07786286135195,517.74351027305,1,36,1880000,1.4775
37,0.080086591902416,517.06051101389,1,37,1885000,1.476875
38,0.082358922798216,516.37628683349,1,38,1890000,1.47625
39,0.084680546118449,515.69086179051,1,39,1895000,1.475625
40,0.087052156855461,515.00425978225,1,40,1900000,1.475
41,0.089474452835096,514.31650454412,1,41,1905000,1.474375
42,0.091948134636719,513.62761964909,1,42,1910000,1.47375
43,0.094473905513027,512.93762850726,1,43,1915000,1.473125
44,0.097052471309671,512.24655436541,1,44,1920000,1.4725
45,0.099684540384732,511.55442030664,1,45,1925000,1.471875
46,0.10237082352806,510.86124925003,1,46,1930000,1.47125
47,0.1051120338805,510.16706395031,1,47,1935000,1.470625
48,0.10790888685307,509.47188699768,1,48,1940000,1.47
49,0.11076210004604,508.7757408175,1,49,1945000,1.469375
50,0.11367239316798,508.07864767018,1,50,1950000,1.46875
51,0.1166404879549,507.38062965102,1,51,1955000,1.468125
52,0.11966710808921,506.68170869007,1,52,1960000,1.4675
53,0.12275297911894,505.98190655211,1,53,1965000,1.466875
54,0.12589882837685,505.28124483659,1,54,1970000,1.46625
55,0.12910538489973,504.5797449776,1,55,1975000,1.465625
56,0.13237337934774,503.87742824395,1,56,1980000,1.465
57,0.1357035439239,503.17431573918,1,57,1985000,1.464375
58,0.13909661229378,502.47042840168,1,58,1990000,1.46375
59,0.14255331950524,501.7657870048,1,59,1995000,1.463125
60,0.14607440190845,501.060412157,1,60,2000000,1.4625
61,0.14966059707614,500.35432430203,1,61,2005000,1.461875
62,0.15331264372396,499.64754371911,1,62,2010000,1.46125
63,0.15703128163121,498.94009052319,1,63,2015000,1.460625
64,0.16081725156177,498.23198466519,1,64,2020000,1.46
65,0.1646712951853,497.52324593229,1,65,2025000,1.459375
66,0.16859415499881,496.81389394822,1,66,2030000,1.45875
67,0.17258657424846,496.1039481736,1,67,2035000,1.458125
68,0.17664929685175,495.39342790626,1,68,2040000,1.4575
69,0.18078306732007,494.68235228168,1,69,2045000,1.456875
70,0.18498863068154,493.97074027329,1,70,2050000,1.45625
71,0.18926673240434,493.25861069298,1,71,2055000,1.455625
72,0.19361811832032,492.54598219146,1,72,2060000,1.455
73,0.19804353454915,491.83287325875,1,73,2065000,1.454375
74,0.20254372742275,491.11930222463,1,74,2070000,1.45375
75,0.20711944341029,490.40528725917,1,75,2075000,1.453125
76,0.21177142904357,489.69084637319,1,76,2080000,1.4525
77,0.21650043084288,488.9759974188,1,77,2085000,1.451875
78,0.22130719524334,488.26075808997,1,78,2090000,1.45125
79,0.22619246852173,487.54514592303,1,79,2095000,1.450625
80,0.23115699672385,486.82917829731,1,80,2100000,1.45
81,0.23620152559233,486.11287243566,1,81,2105000,1.449375
82,0.24132680049501,485.39624540509,1,82,2110000,1.44875
83,0.2465335663539,484.67931411739,1,83,2115000,1.448125
84,0.25182256757456,483.96209532972,1,84,2120000,1.4475
85,0.25719454797615,483.24460564527,1,85,2125000,1.446875
86,0.26265025072202,482.52686151395,1,86,2130000,1.44625
87,0.26819041825084,481.80887923297,1,87,2135000,1.445625
88,0.27381579220835,481.09067494761,1,88,2140000,1.445
89,0.27952711337966,480.37226465181,1,89,2145000,1.444375
90,0.28532512162222,479.65366418895,1,90,2150000,1.44375
91,0.29121055579935,478.93488925252,1,91,2155000,1.443125
92,0.29718415371437,478.21595538681,1,92,2160000,1.4425
93,0.3032466520454,477.4968779877,1,93,2165000,1.441875
94,0.30939878628076,476.77767230331,1,94,2170000,1.44125
95,0.31564129065504,476.05835343483,1,95,2175000,1.440625
96,0.78670113320398,475.33893633719,1,96,2180000,1.44
97,1.4546059140648,474.61943581988,1,97,2185000,1.439375
98,2.2629009311675,473.89986654766,1,98,2190000,1.43875
99,3.1571574743516,473.1802430414,1,99,2195000,1.438125
100,4.0944788627276,472.46057967878,1,100,2200000,1.4375
101,5.0440721406841,471.74089069511,1,101,2205000,1.436875
102,5.9850453254176,471.02119018415,1,102,2210000,1.43625
103,6.9038594624489,470.30149209886,1,103,2215000,1.435625
104,7.7921839441719,469.5818102522,1,104,2220000,1.435
105,8.6452784814141,468.86215831798,1,105,2225000,1.434375
106,9.4608312831187,468.14254983162,1,106,2230000,1.43375
107,10.238145371136,467.42299819099,1,107,2235000,1.433125
108,10.977576395124,466.70351665725,1,108,2240000,1.4325
109,11.680147399899,465.9841183556,1,109,2245000,1.431875
110,12.347286479434,465.26481627619,1,110,2250000,1.43125
111,12.980649237591,464.5456232749,1,111,2255000,1.430625
112,13.581999611099,463.82655207418,1,112,2260000,1.43
113,14.153130805415,463.10761526389,1,113,2265000,1.429375
114,14.695813775058,462.38882530213,1,114,2270000,1.42875
115,15.211764590303,461.6701945161,1,115,2275000,1.428125
116,15.702624717786,460.95173510292,1,116,2280000,1.4275
117,16.169950088053,460.23345913045,1,117,2285000,1.426875
118,16.615206094035,459.51537853821,1,118,2290000,1.42625
119,17.039766542085,458.79750513816,1,119,2295000,1.425625
120,17.444915185301,458.07985061556,1,120,2300000,1.425
121,17.831848891409,457.36242652983,1,121,2305000,1.424375
122,18.201681791933,456.64524431541,1,122,2310000,1.42375
123,18.555449964998,455.92831528258,1,123,2315000,1.423125
124,18.894116347937,455.21165061834,1,124,2320000,1.4225
125,19.21857567645,454.49526138722,1,125,2325000,1.421875
126,19.52965931741,453.77915853219,1,126,2330000,1.42125
127,19.828139911438,453.06335287546,1,127,2335000,1.420625
128,20.114735775399,452.34785511934,1,128,2340000,1.42
129,20.390115038451,451.63267584712,1,129,2345000,1.419375
130,20.654899501232,450.91782552388,1,130,2350000,1.41875
131,20.909668218506,450.20331449736,1,131,2355000,1.418125
132,21.154960812559,449.48915299881,1,132,2360000,1.4175
133,21.391280529064,448.77535114381,1,133,2365000,1.416875
134,21.619097049659,448.06191893317,1,134,2370000,1.41625
135,21.838849076834,447.3488662537,1,135,2375000,1.415625
136,22.050946707163,446.63620287913,1,136,2380000,1.415
137,22.25577360878,445.92393847088,1,137,2385000,1.414375
138,22.453689018531,445.21208257897,1,138,2390000,1.41375
139,22.64502957348,444.50064464279,1,139,2395000,1.413125
140,22.830110990589,443.78963399199,1,140,2400000,1.4125
141,23.009229607473,443.07905984727,1,141,2405000,1.411875
142,23.182663796162,442.36893132127,1,142,2410000,1.41125
143,23.350675260886,441.65925741934,1,143,2415000,1.410625
144,23.513510229995,440.95004704038,1,144,2420000,1.41
145,23.671400551254,440.2413089777,1,145,2425000,1.409375
146,23.824564698977,439.53305191983,1,146,2430000,1.40875
147,23.973208700694,438.82528445129,1,147,2435000,1.408125
148,24.117526990375,438.11801505348,1,148,2440000,1.4075
149,24.257703194583,437.41125210547,1,149,2445000,1.406875
150,24.393910857378,436.70500388477,1,150,2450000,1.40625
151,24.526314109219,435.9992785682,1,151,2455000,1.405625
152,24.655068284687,435.29408423266,1,152,2460000,1.405
153,24.78032049336,434.58942885596,1,153,2465000,1.404375
154,24.902210147809,433.88532031758,1,154,2470000,1.40375
155,25.020869452316,433.18176639951,1,155,2475000,1.403125
156,25.136423855578,432.478774787,1,156,2480000,1.4025
157,25.248992470372,431.77635306941,1,157,2485000,1.401875
158,25.358688462904,431.07450874093,1,158,2490000,1.40125
159,25.465619414287,430.3732492014,1,159,2495000,1.400625
160,25.569887656412,429.67258175711,1,160,2500000,1.4
161,25.671590584254,428.97251362151,1,161,2505000,1.399375
162,25.770820946473,428.27305191607,1,162,2510000,1.39875
163,25.867667116037,427.57420367098,1,163,2515000,1.398125
164,25.962213342397,426.87597582594,1,164,2520000,1.3975
165,26.05453998666,426.17837523092,1,165,2525000,1.396875
166,26.144723741052,425.48140864693,1,166,2530000,1.39625
167,26.232837833859,424.78508274677,1,167,2535000,1.395625
168,26.318952220952,424.08940411577,1,168,2540000,1.395
169,26.403133764878,423.39437925253,1,169,2545000,1.394375
170,26.485446402448,422.70001456969,1,170,2550000,1.39375
171,26.565951301661,422.00631639467,1,171,2555000,1.393125
172,26.644707008733,421.31329097035,1,172,2560000,1.3925
173,26.721769585948,420.62094445589,1,173,2565000,1.391875
174,26.797192740986,419.92928292737,1,174,2570000,1.39125
175,26.871027948321,419.23831237857,1,175,2575000,1.390625
176,26.943324563251,418.54803872167,1,176,2580000,1.39
177,27.014129929076,417.85846778797,1,177,2585000,1.389375
178,27.083489477885,417.16960532858,1,178,2590000,1.38875
179,27.15144682539,416.48145701517,1,179,2595000,1.388125
180,27.218043860216,415.79402844062,1,180,2600000,1.3875
181,27.283320828016,415.10732511976,1,181,2605000,1.386875
182,27.347316410742,414.42135249006,1,182,2610000,1.38625
183,27.410067801415,413.73611591228,1,183,2615000,1.385625
184,27.471610774665,413.05162067122,1,184,2620000,1.385
185,27.531979753329,412.36787197633,1,185,2625000,1.384375
186,27.591207871354,411.68487496247,1,186,2630000,1.38375
187,27.649327033242,411.00263469049,1,187,2635000,1.383125
188,27.706367970253,410.32115614798,1,188,2640000,1.3825
189,27.762360293572,409.64044424989,1,189,2645000,1.381875
190,27.81733254463,408.96050383921,1,190,2650000,1.38125
191,27.871312242744,408.28133968761,1,191,2655000,1.380625
192,27.924325930257,407.6029564961,1,192,2660000,1.38
193,27.976399215308,406.9253588957,1,193,2665000,1.379375
194,28.027556812397,406.24855144803,1,194,2670000,1.37875
195,28.077822580854,405.572538646,1,195,2675000,1.378125
196,28.12721956136,404.89732491443,1,196,2680000,1.3775
197,28.175770010609,404.22291461066,1,197,2685000,1.376875
198,28.223495434239,403.54931202521,1,198,2690000,1.37625
199,28.270416618124,402.87652138238,1,199,2695000,1.375625
200,28.316553658113,402.20454684087,1,200,2700000,1.375
201,28.36192598833,401.5333924944,1,201,2700000,1.374375
202,28.406552408076,400.86306237232,1,202,2700000,1.37375
203,28.450451107457,400.19356044019,1,203,2700000,1.373125
204,28.493639691768,399.52489060043,1,204,2700000,1.3725
205,28.536135204728,398.85705669288,1,205,2700000,1.371875
206,28.577954150617,398.1900624954,1,206,2700000,1.37125
207,28.619112515385,397.52391172445,1,207,2700000,1.370625
208,28.659625786768,396.85860803569,1,208,2700000,1.37
209,28.69950897349,396.19415502456,1,209,2700000,1.369375
210,28.738776623581,395.53055622683,1,210,2700000,1.36875
211,28.777442841863,394.86781511921,1,211,2700000,1.368125
212,28.815521306652,394.20593511989,1,212,2700000,1.3675
213,28.85302528571,393.5449195891,1,213,2700000,1.366875
214,28.889967651489,392.88477182968,1,214,2700000,1.36625
215,28.926360895703,392.22549508765,1,215,2700000,1.365625
216,28.962217143262,391.56709255272,1,216,2700000,1.365
217,28.997548165602,390.90956735888,1,217,2700000,1.364375
218,29.032365393439,390.2529225849,1,218,2700000,1.36375
219,29.066679928973,389.59716125491,1,219,2700000,1.363125
220,29.100502557576,388.9422863389,1,220,2700000,1.3625
221,29.133843758988,388.28830075328,1,221,2700000,1.361875
222,29.166713718035,387.63520736136,1,222,2700000,1.36125
223,29.199122334911,386.98300897394,1,223,2700000,1.360625
224,29.231079235025,386.33170834976,1,224,2700000,1.36
225,29.262593778445,385.68130819605,1,225,2700000,1.359375
226,29.293675068962,385.03181116905,1,226,2700000,1.35875
227,29.324331962779,384.38321987447,1,227,2700000,1.358125
228,29.35457307685,383.73553686805,1,228,2700000,1.3575
229,29.384406796891,383.088764656,1,229,2700000,1.356875
230,29.413841285066,382.44290569555,1,230,2700000,1.35625
231,29.442884487372,381.7979623954,1,231,2700000,1.355625
232,29.471544140734,381.15393711621,1,232,2700000,1.355
233,29.499827779821,380.51083217111,1,233,2700000,1.354375
234,29.527742743598,379.86864982614,1,234,2700000,1.35375
235,29.55529618163,379.22739230077,1,235,2700000,1.353125
236,29.582495060135,378.58706176832,1,236,2700000,1.3525
237,29.60934616782,377.94766035647,1,237,2700000,1.351875
238,29.635856121481,377.30919014769,1,238,2700000,1.35125
239,29.662031371405,376.67165317974,1,239,2700000,1.350625
240,29.687878206566,376.03505144607,1,240,2700000,1.35
241,29.713402759624,375.39938689631,1,241,2700000,1.349375
242,29.738611011743,374.76466143674,1,242,2700000,1.34875
243,29.763508797235,374.13087693068,1,243,2700000,1.348125
244,29.78810180803,373.49803519895,1,244,2700000,1.3475
245,29.812395597986,372.86613802033,1,245,2700000,1.346875
246,29.836395587042,372.23518713197,1,246,2700000,1.34625
247,29.860107065227,371.60518422984,1,247,2700000,1.345625
248,29.883535196519,370.97613096912,1,248,2700000,1.345
249,29.906685022571,370.34802896468,1,249,2700000,1.344375
250,29.929561466311,369.72087979144,1,250,2700000,1.34375
251,29.952169335407,369.09468498482,1,251,2700000,1.343125
252,29.974513325613,368.46944604114,1,252,2700000,1.3425
253,29.996598024007,367.84516441806,1,253,2700000,1.341875
254,30.018427912111,367.22184153492,1,254,2700000,1.34125
255,30.040007368902,366.59947877321,1,255,2700000,1.340625
256,30.061340673727,365.97807747692,1,256,2700000,1.34
257,30.082432009115,365.35763895298,1,257,2700000,1.339375
258,30.103285463499,364.7381644716,1,258,2700000,1.33875
259,30.123905033837,364.1196552667,1,259,2700000,1.338125
260,30.144294628161,363.50211253628,1,260,2700000,1.3375
261,30.164458068025,362.8855374428,1,261,2700000,1.336875
262,30.184399090887,362.26993111356,1,262,2700000,1.33625
263,30.204121352403,361.65529464108,1,263,2700000,1.335625
264,30.223628428651,361.04162908345,1,264,2700000,1.335
265,30.242923818282,360.42893546475,1,265,2700000,1.334375
266,30.262010944599,359.81721477535,1,266,2700000,1.33375
267,30.280893157578,359.20646797233,1,267,2700000,1.333125
268,30.299573735811,358.59669597979,1,268,2700000,1.3325
269,30.318055888401,357.98789968925,1,269,2700000,1.331875
270,30.336342756788,357.38007995997,1,270,2700000,1.33125
271,30.354437416521,356.77323761932,1,271,2700000,1.330625
272,30.372342878976,356.16737346313,1,272,2700000,1.33
273,30.390062093018,355.56248825599,1,273,2700000,1.329375
274,30.407597946612,354.95858273166,1,274,2700000,1.32875
275,30.424953268388,354.35565759335,1,275,2700000,1.328125
276,30.442130829151,353.75371351409,1,276,2700000,1.3275
277,30.459133343355,353.15275113703,1,277,2700000,1.326875
278,30.475963470522,352.55277107582,1,278,2700000,1.32625
279,30.492623816625,351.95377391486,1,279,2700000,1.325625
280,30.509116935428,351.3557602097,1,280,2700000,1.325
281,30.525445329784,350.75873048731,1,281,2700000,1.324375
282,30.541611452898,350.16268524642,1,282,2700000,1.32375
283,30.55761770955,349.56762495782,1,283,2700000,1.323125
284,30.573466457281,348.97355006468,1,284,2700000,1.3225
285,30.589160007549,348.38046098286,1,285,2700000,1.321875
286,30.604700626847,347.78835810123,1,286,2700000,1.32125
287,30.620090537789,347.19724178192,1,287,2700000,1.320625
288,30.635331920167,346.60711236069,1,288,2700000,1.32
289,30.650426911977,346.01797014717,1,289,2700000,1.319375
290,30.665377610413,345.42981542521,1,290,2700000,1.31875
291,30.680186072837,344.84264845311,1,291,2700000,1.318125
292,30.694854317718,344.25646946396,1,292,2700000,1.3175
293,30.709384325545,343.6712786659,1,293,2700000,1.316875
294,30.723778039717,343.08707624243,1,294,2700000,1.31625
295,30.738037367406,342.50386235265,1,295,2700000,1.315625
296,30.752164180397,341.92163713158,1,296,2700000,1.315
297,30.766160315903,341.34040069042,1,297,2700000,1.314375
298,30.780027577359,340.76015311682,1,298,2700000,1.31375
299,30.793767735193,340.18089447516,1,299,2700000,1.313125
300,30.807382527583,339.60262480681,1,300,2700000,1.3125
301,30.820873661178,339.02534413041,1,301,2700000,1.311875
302,30.834242811816,338.44905244213,1,302,2700000,1.31125
303,30.847491625214,337.8737497159,1,303,2700000,1.310625
304,30.860621717639,337.29943590372,1,304,2700000,1.31
305,30.873634676567,336.72611093591,1,305,2700000,1.309375
306,30.886532061317,336.15377472131,1,306,2700000,1.30875
307,30.899315403675,335.5824271476,1,307,2700000,1.308125
308,30.911986208495,335.0120680815,1,308,2700000,1.3075
309,30.924545954293,334.44269736906,1,309,2700000,1.306875
310,30.936996093816,333.87431483586,1,310,2700000,1.30625
311,30.9493380546,333.30692028729,1,311,2700000,1.305625
312,30.96157323952,332.74051350877,1,312,2700000,1.305
313,30.973703027312,332.17509426599,1,313,2700000,1.304375
314,30.985728773096,331.61066230517,1,314,2700000,1.30375
315,30.997651808875,331.04721735325,1,315,2700000,1.303125
316,31.009473444027,330.48475911815,1,316,2700000,1.3025
317,31.021194965785,329.92328728902,1,317,2700000,1.301875
318,31.032817639698,329.3628015364,1,318,2700000,1.30125
319,31.044342710091,328.80330151253,1,319,2700000,1.300625
320,31.055771400502,328.2447868515,1,320,2700000,1.3
321,31.06710491412,327.68725716952,1,321,2700000,1.299375
322,31.078344434201,327.1307120651,1,322,2700000,1.29875
323,31.089491124482,326.57515111931,1,323,2700000,1.298125
324,31.100546129578,326.02057389596,1,324,2700000,1.2975
325,31.111510575378,325.46697994181,1,325,2700000,1.296875
326,31.122385569421,324.91436878683,1,326,2700000,1.29625
327,31.133172201273,324.36273994434,1,327,2700000,1.295625
328,31.143871542884,323.81209291126,1,328,2700000,1.295
329,31.154484648949,323.26242716831,1,329,2700000,1.294375
330,31.165012557248,322.7137421802,1,330,2700000,1.29375
331,31.175456288985,322.16603739584,1,331,2700000,1.293125
332,31.185816849121,321.61931224853,1,332,2700000,1.2925
333,31.196095226691,321.07356615617,1,333,2700000,1.291875
334,31.206292395119,320.52879852145,1,334,2700000,1.29125
335,31.216409312527,319.98500873203,1,335,2700000,1.290625
336,31.22644692203,319.44219616075,1,336,2700000,1.29
337,31.236406152034,318.90036016582,1,337,2700000,1.289375
338,31.246287916517,318.35950009097,1,338,2700000,1.28875
339,31.25609311531,317.8196152657,1,339,2700000,1.288125
340,31.265822634368,317.28070500541,1,340,2700000,1.2875
341,31.275477346039,316.74276861159,1,341,2700000,1.286875
342,31.285058109322,316.20580537202,1,342,2700000,1.28625
343,31.294565770122,315.66981456096,1,343,2700000,1.285625
344,31.304001161496,315.13479543928,1,344,2700000,1.285
345,31.3133651039,314.60074725466,1,345,2700000,1.284375
346,31.322658405424,314.06766924178,1,346,2700000,1.28375
347,31.331881862024,313.53556062248,1,347,2700000,1.283125
348,31.341036257749,313.0044206059,1,348,2700000,1.2825
349,31.350122364962,312.4742483887,1,349,2700000,1.281875
350,31.359140944557,311.94504315518,1,350,2700000,1.28125
351,31.368092746174,311.4168040775,1,351,2700000,1.280625
352,31.376978508401,310.88953031577,1,352,2700000,1.28
353,31.38579895898,310.36322101828,1,353,2700000,1.279375
354,31.394554815005,309.83787532161,1,354,2700000,1.27875
355,31.403246783116,309.31349235084,1,355,2700000,1.278125
356,31.411875559687,308.79007121965,1,356,2700000,1.2775
357,31.420441831015,308.26761103051,1,357,2700000,1.276875
358,31.428946273498,307.74611087484,1,358,2700000,1.27625
359,31.437389553815,307.22556983313,1,359,2700000,1.275625
360,31.445772329098,306.70598697512,1,360,2700000,1.275
361,31.454095247105,306.18736135995,1,361,2700000,1.274375
362,31.462358946384,305.66969203628,1,362,2700000,1.27375
363,31.470564056435,305.15297804247,1,363,2700000,1.273125
364,31.478711197875,304.6372184067,1,364,2700000,1.2725
